t,y(t)
0.0,1.0
0.1,0.8187
0.2,0.6703
0.3,0.5488
0.4,0.4493
0.5,0.3679
0.6,0.3012
0.7,0.2466
0.8,0.2019
0.9,0.1653
1.0,0.1353
1.1,0.1108
1.2,0.0907
1.3,0.0743
1.4,0.0608
1.5,0.0498
1.6,0.0408
1.7,0.0336
1.8,0.0277
1.9,0.0228
2.0,0.0183
2.1,0.0149
2.2,0.0121
2.3,0.0099
2.4,0.0081
2.5,0.0067
2.6,0.0055
2.7,0.0045
2.8,0.0037
2.9,0.0030
3.0,0.0025
